7.725000	 0.000000 	 
7.735016	 34.872730 	 
7.745033	 31.834860 	 
7.755049	 32.097300 	 
7.765066	 31.468090 	 
7.775082	 31.834920 	 
7.785099	 31.247910 	 
7.795115	 31.806170 	 
7.805132	 30.879210 	 
7.815148	 31.432430 	 
7.825165	 30.892060 	 
7.835181	 30.893350 	 
7.845198	 31.169710 	 
7.855214	 31.002360 	 
7.865231	 30.909400 	 
7.875247	 30.955850 	 
7.885264	 31.031250 	 
7.895280	 31.100910 	 
7.905297	 30.745280 	 
7.915313	 30.740740 	 
7.925329	 30.826150 	 
7.935346	 30.875550 	 
7.945362	 30.507680 	 
7.955379	 30.364970 	 
7.965395	 30.483380 	 
7.975412	 30.557400 	 
7.985428	 30.458160 	 
7.995445	 30.234090 	 
8.005461	 30.375140 	 
8.015478	 30.129800 	 
8.025494	 30.180660 	 
8.035511	 30.136480 	 
8.045527	 30.074340 	 
8.055544	 30.309850 	 
8.065560	 30.082280 	 
8.075577	 29.993460 	 
8.085593	 30.044810 	 
8.095610	 30.003720 	 
8.105626	 29.974490 	 
8.115643	 30.009370 	 
8.125659	 30.023370 	 
8.135675	 29.973410 	 
8.145692	 30.002190 	 
8.155708	 29.920170 	 
8.165725	 29.682260 	 
8.175741	 29.835240 	 
8.185758	 29.739700 	 
8.195774	 29.671940 	 
8.205791	 29.770420 	 
8.215807	 29.602600 	 
8.225824	 29.709050 	 
8.235840	 29.569340 	 
8.245857	 29.567700 	 
8.255873	 29.586670 	 
8.265890	 29.838320 	 
8.275906	 29.642480 	 
8.285923	 29.577370 	 
8.295939	 29.498660 	 
8.305956	 29.457020 	 
8.315972	 29.384120 	 
8.325988	 29.502040 	 
8.336005	 29.217720 	 
8.346021	 29.204780 	 
8.356038	 29.215280 	 
8.366054	 29.176020 	 
8.376071	 29.264110 	 
8.386087	 29.205860 	 
8.396104	 29.161910 	 
8.406120	 29.139240 	 
8.416137	 29.306580 	 
8.426153	 29.060370 	 
8.436170	 29.143680 	 
8.446186	 29.113740 	 
8.456203	 28.813750 	 
8.466219	 28.927720 	 
8.476236	 28.919110 	 
8.486252	 28.785070 	 
8.496269	 28.915550 	 
8.506285	 28.781540 	 
8.516301	 28.751690 	 
8.526318	 28.787880 	 
8.536334	 28.872550 	 
8.546351	 28.807980 	 
8.556367	 28.790090 	 
8.566384	 28.561680 	 
8.576400	 28.589000 	 
8.586417	 28.622940 	 
8.596433	 28.651150 	 
8.606450	 28.541130 	 
8.616466	 28.562890 	 
8.626483	 28.601430 	 
8.636499	 28.383380 	 
8.646516	 28.441290 	 
8.656532	 28.403730 	 
8.666549	 28.464960 	 
8.676565	 28.567530 	 
8.686582	 28.393420 	 
8.696598	 28.362920 	 
8.706614	 28.316060 	 
8.716631	 28.291540 	 
8.726647	 28.333940 	 
8.736664	 28.337710 	 
8.746680	 28.149990 	 
8.756697	 28.282780 	 
8.766713	 28.207950 	 
8.776730	 28.076590 	 
8.786746	 28.059540 	 
8.796763	 28.040700 	 
8.806779	 27.983910 	 
8.816796	 28.059520 	 
8.826812	 27.967990 	 
8.836829	 28.091940 	 
8.846845	 27.922930 	 
8.856862	 28.092230 	 
8.866878	 27.946660 	 
8.876895	 27.868470 	 
8.886911	 27.903420 	 
8.896928	 27.941610 	 
8.906944	 28.012120 	 
8.916960	 27.822650 	 
8.926977	 27.834790 	 
8.936993	 27.745790 	 
8.947010	 27.746840 	 
8.957026	 27.798200 	 
8.967043	 27.769660 	 
8.977059	 27.753680 	 
8.987076	 27.691710 	 
8.997092	 27.711600 	 
9.007109	 27.645610 	 
9.017125	 27.675990 	 
9.027142	 27.554330 	 
9.037158	 27.582110 	 
9.047175	 27.463690 	 
9.057191	 27.553600 	 
9.067208	 27.500910 	 
9.077224	 27.517390 	 
9.087241	 27.536320 	 
9.097257	 27.451870 	 
9.107273	 27.429040 	 
9.117290	 27.444370 	 
9.127306	 27.432130 	 
9.137323	 27.417040 	 
9.147339	 27.322720 	 
9.157356	 27.446870 	 
9.167372	 27.231230 	 
9.177389	 27.209340 	 
9.187405	 27.307990 	 
9.197422	 27.233570 	 
9.207438	 27.174840 	 
9.217455	 27.237740 	 
9.227471	 27.260890 	 
9.237488	 27.276060 	 
9.247504	 27.184000 	 
9.257521	 27.221010 	 
9.267537	 27.101500 	 
9.277554	 27.141330 	 
9.287570	 27.107150 	 
9.297586	 27.094380 	 
9.307603	 27.137360 	 
9.317619	 27.065840 	 
9.327636	 27.016280 	 
9.337652	 26.981120 	 
9.347669	 26.933580 	 
9.357685	 26.990800 	 
9.367702	 26.913080 	 
9.377718	 26.917810 	 
9.387735	 26.832130 	 
9.397751	 26.831380 	 
9.407768	 26.869900 	 
9.417784	 26.836000 	 
9.427801	 26.833680 	 
9.437817	 26.808590 	 
9.447834	 26.854630 	 
9.457850	 26.752020 	 
9.467867	 26.731000 	 
9.477883	 26.727770 	 
9.487900	 26.707240 	 
9.497916	 26.762640 	 
9.507932	 26.623010 	 
9.517949	 26.734090 	 
9.527965	 26.644700 	 
9.537982	 26.620390 	 
9.547998	 26.669360 	 
9.558015	 26.741400 	 
9.568031	 26.637990 	 
9.578048	 26.716190 	 
9.588064	 26.714060 	 
9.598081	 26.562330 	 
9.608097	 26.598270 	 
9.618114	 26.561120 	 
9.628130	 26.569720 	 
9.638147	 26.566220 	 
9.648163	 26.453770 	 
9.658180	 26.493570 	 
9.668196	 26.369270 	 
9.678213	 26.478200 	 
9.688229	 26.362460 	 
9.698245	 26.377920 	 
9.708262	 26.391300 	 
9.718278	 26.356020 	 
9.728295	 26.299240 	 
9.738311	 26.280730 	 
9.748328	 26.234570 	 
9.758344	 26.309110 	 
9.768361	 26.322890 	 
9.778377	 26.282020 	 
9.788394	 26.355210 	 
9.798410	 26.286170 	 
9.808427	 26.233720 	 
9.818443	 26.222610 	 
9.828460	 26.258610 	 
9.838476	 26.229890 	 
9.848493	 26.214270 	 
9.858509	 26.235610 	 
9.868526	 26.170410 	 
9.878542	 26.184330 	 
9.888558	 26.247720 	 
9.898575	 26.177790 	 
9.908591	 26.258010 	 
9.918608	 26.137800 	 
9.928624	 26.148460 	 
9.938641	 26.205980 	 
9.948657	 26.239930 	 
9.958674	 26.275780 	 
9.968690	 26.246260 	 
9.978707	 26.106360 	 
9.988723	 26.261900 	 
9.998740	 26.203680 	 
10.008760	 26.202880 	 
10.018770	 26.246570 	 
10.028790	 26.257340 	 
10.038810	 26.337950 	 
10.048820	 26.298160 	 
10.058840	 26.237050 	 
10.068860	 26.202240 	 
10.078870	 26.320990 	 
10.088890	 26.270340 	 
10.098900	 26.303790 	 
10.108920	 26.396070 	 
10.118940	 26.404990 	 
10.128950	 26.557240 	 
10.138970	 26.513190 	 
10.148990	 26.659560 	 
10.159000	 26.481730 	 
10.169020	 26.597530 	 
10.179040	 26.746950 	 
10.189050	 26.788280 	 
10.199070	 26.798160 	 
10.209090	 26.830680 	 
10.219100	 26.996900 	 
10.229120	 27.067200 	 
10.239140	 27.177160 	 
10.249150	 27.278790 	 
10.259170	 27.294430 	 
10.269180	 27.498870 	 
10.279200	 27.636590 	 
10.289220	 27.766960 	 
10.299230	 27.912870 	 
10.309250	 28.095130 	 
10.319270	 28.277520 	 
10.329280	 28.575090 	 
10.339300	 28.748260 	 
10.349320	 29.057570 	 
10.359330	 29.329220 	 
10.369350	 29.615020 	 
10.379370	 29.947370 	 
10.389380	 30.410010 	 
10.399400	 30.769640 	 
10.409420	 31.252800 	 
10.419430	 31.816650 	 
10.429450	 32.399170 	 
10.439460	 33.163330 	 
10.449480	 33.701150 	 
10.459500	 34.750660 	 
10.469510	 35.620240 	 
10.479530	 36.693250 	 
10.489550	 38.074820 	 
10.499560	 39.482660 	 
10.509580	 41.120970 	 
10.519600	 43.150270 	 
10.529610	 45.540360 	 
10.539630	 48.102430 	 
10.549650	 51.001690 	 
10.559660	 54.443430 	 
10.569680	 58.621040 	 
10.579700	 63.223690 	 
10.589710	 68.599360 	 
10.599730	 74.761890 	 
10.609740	 81.738690 	 
10.619760	 89.906250 	 
10.629780	 99.040950 	 
10.639790	 109.513700 	 
10.649810	 121.170400 	 
10.659830	 133.909800 	 
10.669840	 148.339400 	 
10.679860	 163.419000 	 
10.689880	 179.783600 	 
10.699890	 195.730400 	 
10.709910	 211.350000 	 
10.719930	 225.195500 	 
10.729940	 236.915900 	 
10.739960	 246.205000 	 
10.749980	 252.613000 	 
10.759990	 256.398100 	 
10.770010	 257.973000 	 
10.780020	 257.339100 	 
10.790040	 255.486200 	 
10.800060	 252.090800 	 
10.810070	 248.385700 	 
10.820090	 244.103400 	 
10.830110	 239.958900 	 
10.840120	 235.790500 	 
10.850140	 232.638000 	 
10.860160	 229.565900 	 
10.870170	 227.769500 	 
10.880190	 226.802300 	 
10.890210	 225.690900 	 
10.900220	 225.433600 	 
10.910240	 225.328300 	 
10.920260	 225.392600 	 
10.930270	 225.735200 	 
10.940290	 226.213800 	 
10.950300	 227.293000 	 
10.960320	 228.500400 	 
10.970340	 231.550100 	 
10.980350	 235.012800 	 
10.990370	 240.353500 	 
11.000390	 247.725300 	 
11.010400	 256.866500 	 
11.020420	 268.666500 	 
11.030440	 284.053400 	 
11.040450	 303.769700 	 
11.050470	 329.593000 	 
11.060490	 364.007700 	 
11.070500	 411.037700 	 
11.080520	 477.193000 	 
11.090540	 572.973500 	 
11.100550	 718.090300 	 
11.110570	 933.754400 	 
11.120580	 1202.933000 	 
11.130600	 1406.301000 	 
11.140620	 1388.706000 	 
11.150630	 1187.255000 	 
11.160650	 910.802400 	 
11.170670	 667.429000 	 
11.180680	 496.070600 	 
11.190700	 383.702800 	 
11.200720	 307.771400 	 
11.210730	 254.625000 	 
11.220750	 215.113500 	 
11.230770	 185.517800 	 
11.240780	 161.955900 	 
11.250800	 143.374700 	 
11.260820	 128.283700 	 
11.270830	 116.149600 	 
11.280850	 105.806000 	 
11.290860	 97.096070 	 
11.300880	 89.440180 	 
11.310900	 83.113800 	 
11.320910	 77.530510 	 
11.330930	 72.735360 	 
11.340950	 68.382010 	 
11.350960	 64.524200 	 
11.360980	 61.096930 	 
11.371000	 58.182780 	 
11.381010	 55.312010 	 
11.391030	 52.774720 	 
11.401050	 50.233450 	 
11.411060	 47.962740 	 
11.421080	 45.867480 	 
11.431100	 43.768830 	 
11.441110	 41.990000 	 
11.451130	 40.308760 	 
11.461140	 38.755960 	 
11.471160	 37.289850 	 
11.481180	 35.887810 	 
11.491190	 34.825930 	 
11.501210	 33.640180 	 
11.511230	 32.443530 	 
11.521240	 31.585940 	 
11.531260	 30.809640 	 
11.541280	 30.027680 	 
11.551290	 29.308500 	 
11.561310	 28.714800 	 
11.571330	 28.307350 	 
11.581340	 27.750470 	 
11.591360	 27.338320 	 
11.601380	 26.875660 	 
11.611390	 26.613890 	 
11.621410	 26.275940 	 
11.631430	 26.079620 	 
11.641440	 25.815660 	 
11.651460	 25.650420 	 
11.661470	 25.397190 	 
11.671490	 25.301930 	 
11.681510	 25.197330 	 
11.691520	 24.981200 	 
11.701540	 24.834230 	 
11.711560	 24.749510 	 
11.721570	 24.659170 	 
11.731590	 24.442070 	 
11.741610	 24.419400 	 
11.751620	 24.212870 	 
11.761640	 24.142050 	 
11.771660	 24.026250 	 
11.781670	 23.924800 	 
11.791690	 23.787240 	 
11.801710	 23.596140 	 
11.811720	 23.613180 	 
11.821740	 23.456630 	 
11.831750	 23.363970 	 
11.841770	 23.147020 	 
11.851790	 23.163750 	 
11.861800	 23.095590 	 
11.871820	 23.027310 	 
11.881840	 22.882300 	 
11.891850	 22.904680 	 
11.901870	 22.761130 	 
11.911890	 22.692000 	 
11.921900	 22.660560 	 
11.931920	 22.617410 	 
11.941940	 22.502820 	 
11.951950	 22.450250 	 
11.961970	 22.329810 	 
11.971990	 22.307630 	 
11.982000	 22.244730 	 
11.992020	 22.188040 	 
12.002030	 22.107180 	 
12.012050	 22.143030 	 
12.022070	 22.011090 	 
12.032080	 22.014570 	 
12.042100	 21.905610 	 
12.052120	 21.802370 	 
12.062130	 21.762790 	 
12.072150	 21.792700 	 
12.082170	 21.782150 	 
12.092180	 21.688810 	 
12.102200	 21.659610 	 
12.112220	 21.639010 	 
12.122230	 21.461690 	 
12.132250	 21.498780 	 
12.142270	 21.439670 	 
12.152280	 21.366480 	 
12.162300	 21.299180 	 
12.172310	 21.306010 	 
12.182330	 21.287140 	 
12.192350	 21.205080 	 
12.202360	 21.183330 	 
12.212380	 21.211440 	 
12.222400	 21.187050 	 
12.232410	 21.139830 	 
12.242430	 21.095810 	 
12.252450	 21.036750 	 
12.262460	 21.016930 	 
12.272480	 20.980630 	 
12.282500	 20.973640 	 
12.292510	 20.987760 	 
12.302530	 20.922870 	 
12.312550	 20.896240 	 
12.322560	 20.848180 	 
12.332580	 20.886440 	 
12.342590	 20.803710 	 
12.352610	 20.764630 	 
12.362630	 20.698080 	 
12.372640	 20.821600 	 
12.382660	 20.703130 	 
12.392680	 20.692540 	 
12.402690	 20.643340 	 
12.412710	 20.594680 	 
12.422730	 20.646200 	 
12.432740	 20.605530 	 
12.442760	 20.534050 	 
12.452780	 20.475440 	 
12.462790	 20.518770 	 
12.472810	 20.559650 	 
12.482830	 20.480820 	 
12.492840	 20.419350 	 
12.502860	 20.471570 	 
12.512870	 20.390130 	 
12.522890	 20.366610 	 
12.532910	 20.369120 	 
12.542920	 20.282100 	 
12.552940	 20.363220 	 
12.562960	 20.263590 	 
12.572970	 20.304560 	 
12.582990	 20.236810 	 
12.593010	 20.257010 	 
12.603020	 20.171120 	 
12.613040	 20.142040 	 
12.623060	 20.222710 	 
12.633070	 20.080380 	 
12.643090	 20.169210 	 
12.653110	 20.153490 	 
12.663120	 20.143280 	 
12.673140	 20.124430 	 
12.683150	 20.091600 	 
12.693170	 20.132190 	 
12.703190	 20.057900 	 
12.713200	 19.968960 	 
12.723220	 19.920260 	 
12.733240	 20.021950 	 
12.743250	 19.920320 	 
12.753270	 20.023730 	 
12.763290	 19.935060 	 
12.773300	 19.881030 	 
12.783320	 19.854450 	 
12.793340	 19.914480 	 
12.803350	 19.776560 	 
12.813370	 19.860010 	 
12.823390	 19.890730 	 
12.833400	 19.879940 	 
12.843420	 19.771610 	 
12.853430	 19.725910 	 
12.863450	 19.804830 	 
12.873470	 19.700000 	 
12.883480	 19.767180 	 
12.893500	 19.810780 	 
12.903520	 19.643690 	 
12.913530	 19.767020 	 
12.923550	 19.671450 	 
12.933570	 19.779730 	 
12.943580	 19.630830 	 
12.953600	 19.683210 	 
12.963620	 19.597400 	 
12.973630	 19.618500 	 
12.983650	 19.667780 	 
12.993670	 19.539140 	 
13.003680	 19.560210 	 
13.013700	 19.592580 	 
13.023710	 19.459370 	 
13.033730	 19.502850 	 
13.043750	 19.510090 	 
13.053760	 19.553280 	 
13.063780	 19.543790 	 
13.073800	 19.575110 	 
13.083810	 19.523870 	 
13.093830	 19.625400 	 
13.103850	 19.484880 	 
13.113860	 19.532710 	 
13.123880	 19.605270 	 
13.133900	 19.550100 	 
13.143910	 19.493430 	 
13.153930	 19.421780 	 
13.163950	 19.491440 	 
13.173960	 19.333820 	 
13.183980	 19.383680 	 
13.194000	 19.494890 	 
13.204010	 19.449900 	 
13.214030	 19.445360 	 
13.224040	 19.525260 	 
13.234060	 19.533090 	 
13.244080	 19.281270 	 
13.254090	 19.474610 	 
13.264110	 19.336900 	 
13.274130	 19.310750 	 
13.284140	 19.245100 	 
13.294160	 19.299640 	 
13.304180	 19.377660 	 
13.314190	 19.391040 	 
13.324210	 19.319720 	 
13.334230	 19.378610 	 
13.344240	 19.336290 	 
13.354260	 19.353200 	 
13.364280	 19.312650 	 
13.374290	 19.428920 	 
13.384310	 19.402190 	 
13.394320	 19.434770 	 
13.404340	 19.314530 	 
13.414360	 19.519910 	 
13.424370	 19.196870 	 
13.434390	 19.347140 	 
13.444410	 19.469650 	 
13.454420	 19.391860 	 
13.464440	 19.304060 	 
13.474460	 19.298760 	 
13.484470	 19.305610 	 
13.494490	 19.411790 	 
13.504510	 19.454960 	 
13.514520	 19.321580 	 
13.524540	 19.367450 	 
13.534560	 19.556050 	 
13.544570	 19.406200 	 
13.554590	 19.529020 	 
13.564600	 19.429740 	 
13.574620	 19.617960 	 
13.584640	 19.428570 	 
13.594650	 19.302160 	 
13.604670	 19.379280 	 
13.614690	 19.581750 	 
13.624700	 19.704140 	 
13.634720	 19.674870 	 
13.644740	 19.714420 	 
13.654750	 20.061690 	 
13.664770	 19.861880 	 
13.674790	 19.935450 	 
13.684800	 20.077220 	 
13.694820	 19.982530 	 
13.704840	 20.269890 	 
13.714850	 20.429970 	 
13.724870	 20.411990 	 
13.734880	 21.024790 	 
13.744900	 20.771790 	 
13.754920	 21.529410 	 
13.764930	 21.871210 	 
13.774950	 21.588740 	 
13.784970	 22.064290 	 
13.794980	 23.583330 	 
13.805000	 0.000000 	 
