7.725000	 0.000000 	 
7.735016	 34.872730 	 
7.745033	 33.348620 	 
7.755049	 33.378380 	 
7.765066	 31.595740 	 
7.775082	 32.539680 	 
7.785099	 31.646240 	 
7.795115	 31.933920 	 
7.805132	 31.895050 	 
7.815148	 31.907090 	 
7.825165	 32.169840 	 
7.835181	 31.096950 	 
7.845198	 31.289820 	 
7.855214	 31.377070 	 
7.865231	 31.268460 	 
7.875247	 31.552360 	 
7.885264	 30.987300 	 
7.895280	 31.145450 	 
7.905297	 30.855060 	 
7.915313	 30.821260 	 
7.925329	 30.824620 	 
7.935346	 30.647020 	 
7.945362	 30.765360 	 
7.955379	 30.488640 	 
7.965395	 30.701410 	 
7.975412	 30.420500 	 
7.985428	 30.349550 	 
7.995445	 30.494320 	 
8.005461	 30.460400 	 
8.015478	 30.589070 	 
8.025494	 30.578810 	 
8.035511	 30.525770 	 
8.045527	 30.348200 	 
8.055544	 30.339780 	 
8.065560	 30.463830 	 
8.075577	 30.178450 	 
8.085593	 30.261200 	 
8.095610	 30.055350 	 
8.105626	 29.975710 	 
8.115643	 30.175320 	 
8.125659	 29.980840 	 
8.135675	 29.962330 	 
8.145692	 29.899490 	 
8.155708	 29.858350 	 
8.165725	 29.903280 	 
8.175741	 29.730460 	 
8.185758	 29.791620 	 
8.195774	 29.907330 	 
8.205791	 29.895180 	 
8.215807	 29.827960 	 
8.225824	 29.675430 	 
8.235840	 29.768570 	 
8.245857	 29.623390 	 
8.255873	 29.665990 	 
8.265890	 29.538370 	 
8.275906	 29.677790 	 
8.285923	 29.519450 	 
8.295939	 29.491720 	 
8.305956	 29.539280 	 
8.315972	 29.523850 	 
8.325988	 29.465780 	 
8.336005	 29.414030 	 
8.346021	 29.577870 	 
8.356038	 29.484330 	 
8.366054	 29.337000 	 
8.376071	 29.313510 	 
8.386087	 29.302210 	 
8.396104	 29.204380 	 
8.406120	 29.232150 	 
8.416137	 29.220790 	 
8.426153	 29.233870 	 
8.436170	 29.057470 	 
8.446186	 29.014380 	 
8.456203	 29.060630 	 
8.466219	 28.983270 	 
8.476236	 29.042470 	 
8.486252	 29.051120 	 
8.496269	 29.123720 	 
8.506285	 28.907520 	 
8.516301	 28.932960 	 
8.526318	 28.943240 	 
8.536334	 28.826240 	 
8.546351	 28.833950 	 
8.556367	 28.647160 	 
8.566384	 28.842530 	 
8.576400	 28.868910 	 
8.586417	 28.678530 	 
8.596433	 28.733060 	 
8.606450	 28.599030 	 
8.616466	 28.645650 	 
8.626483	 28.687150 	 
8.636499	 28.674470 	 
8.646516	 28.560700 	 
8.656532	 28.657080 	 
8.666549	 28.559640 	 
8.676565	 28.557090 	 
8.686582	 28.408130 	 
8.696598	 28.411000 	 
8.706614	 28.406520 	 
8.716631	 28.371320 	 
8.726647	 28.441190 	 
8.736664	 28.390100 	 
8.746680	 28.379150 	 
8.756697	 28.325160 	 
8.766713	 28.321010 	 
8.776730	 28.181360 	 
8.786746	 28.267410 	 
8.796763	 28.236390 	 
8.806779	 28.224480 	 
8.816796	 28.209370 	 
8.826812	 28.096160 	 
8.836829	 28.103610 	 
8.846845	 28.047250 	 
8.856862	 28.104520 	 
8.866878	 28.167890 	 
8.876895	 28.101230 	 
8.886911	 27.969950 	 
8.896928	 27.845380 	 
8.906944	 27.927130 	 
8.916960	 27.887400 	 
8.926977	 27.826670 	 
8.936993	 27.840820 	 
8.947010	 27.836200 	 
8.957026	 27.895150 	 
8.967043	 27.774820 	 
8.977059	 27.829020 	 
8.987076	 27.581300 	 
8.997092	 27.675020 	 
9.007109	 27.746790 	 
9.017125	 27.686250 	 
9.027142	 27.630060 	 
9.037158	 27.682120 	 
9.047175	 27.648590 	 
9.057191	 27.583910 	 
9.067208	 27.695290 	 
9.077224	 27.561510 	 
9.087241	 27.617830 	 
9.097257	 27.483030 	 
9.107273	 27.364380 	 
9.117290	 27.520950 	 
9.127306	 27.480570 	 
9.137323	 27.521970 	 
9.147339	 27.399460 	 
9.157356	 27.354640 	 
9.167372	 27.285140 	 
9.177389	 27.323630 	 
9.187405	 27.412820 	 
9.197422	 27.264000 	 
9.207438	 27.135710 	 
9.217455	 27.410030 	 
9.227471	 27.318170 	 
9.237488	 27.099510 	 
9.247504	 27.235620 	 
9.257521	 27.142330 	 
9.267537	 27.064640 	 
9.277554	 27.088510 	 
9.287570	 27.064370 	 
9.297586	 27.116640 	 
9.307603	 27.044630 	 
9.317619	 27.064890 	 
9.327636	 27.063320 	 
9.337652	 27.081940 	 
9.347669	 26.962280 	 
9.357685	 26.921010 	 
9.367702	 26.959030 	 
9.377718	 26.989390 	 
9.387735	 26.919880 	 
9.397751	 26.862770 	 
9.407768	 26.863030 	 
9.417784	 26.788350 	 
9.427801	 26.793630 	 
9.437817	 26.783960 	 
9.447834	 26.778100 	 
9.457850	 26.697890 	 
9.467867	 26.756840 	 
9.477883	 26.709930 	 
9.487900	 26.724060 	 
9.497916	 26.721210 	 
9.507932	 26.753970 	 
9.517949	 26.676680 	 
9.527965	 26.639440 	 
9.537982	 26.698640 	 
9.547998	 26.633130 	 
9.558015	 26.616050 	 
9.568031	 26.619210 	 
9.578048	 26.720430 	 
9.588064	 26.634520 	 
9.598081	 26.549610 	 
9.608097	 26.634460 	 
9.618114	 26.551630 	 
9.628130	 26.536320 	 
9.638147	 26.532850 	 
9.648163	 26.448210 	 
9.658180	 26.387970 	 
9.668196	 26.497600 	 
9.678213	 26.408660 	 
9.688229	 26.461110 	 
9.698245	 26.311280 	 
9.708262	 26.397330 	 
9.718278	 26.355080 	 
9.728295	 26.421830 	 
9.738311	 26.299350 	 
9.748328	 26.335500 	 
9.758344	 26.288990 	 
9.768361	 26.278090 	 
9.778377	 26.198530 	 
9.788394	 26.295210 	 
9.798410	 26.192280 	 
9.808427	 26.243130 	 
9.818443	 26.241540 	 
9.828460	 26.138760 	 
9.838476	 26.176810 	 
9.848493	 26.138770 	 
9.858509	 26.228570 	 
9.868526	 26.191010 	 
9.878542	 26.123480 	 
9.888558	 26.175920 	 
9.898575	 26.164160 	 
9.908591	 26.146820 	 
9.918608	 26.113630 	 
9.928624	 26.106630 	 
9.938641	 26.114750 	 
9.948657	 26.072730 	 
9.958674	 26.166920 	 
9.968690	 26.075440 	 
9.978707	 26.049090 	 
9.988723	 26.046940 	 
9.998740	 26.059590 	 
10.008760	 26.071640 	 
10.018770	 26.024160 	 
10.028790	 26.032270 	 
10.038810	 26.013280 	 
10.048820	 26.101930 	 
10.058840	 26.094650 	 
10.068860	 26.072870 	 
10.078870	 26.155370 	 
10.088890	 26.214470 	 
10.098900	 26.200490 	 
10.108920	 26.013350 	 
10.118940	 26.115520 	 
10.128950	 26.231770 	 
10.138970	 26.173290 	 
10.148990	 26.159940 	 
10.159000	 26.242650 	 
10.169020	 26.322120 	 
10.179040	 26.439490 	 
10.189050	 26.387320 	 
10.199070	 26.493000 	 
10.209090	 26.448380 	 
10.219100	 26.598720 	 
10.229120	 26.615150 	 
10.239140	 26.747340 	 
10.249150	 26.758620 	 
10.259170	 26.854860 	 
10.269180	 27.009780 	 
10.279200	 27.068690 	 
10.289220	 27.128800 	 
10.299230	 27.302880 	 
10.309250	 27.478640 	 
10.319270	 27.519600 	 
10.329280	 27.681620 	 
10.339300	 27.886690 	 
10.349320	 28.007070 	 
10.359330	 28.346540 	 
10.369350	 28.593840 	 
10.379370	 28.847950 	 
10.389380	 29.112230 	 
10.399400	 29.393520 	 
10.409420	 29.812890 	 
10.419430	 30.147600 	 
10.429450	 30.640050 	 
10.439460	 31.183260 	 
10.449480	 31.791890 	 
10.459500	 32.393500 	 
10.469510	 33.195200 	 
10.479530	 33.977870 	 
10.489550	 34.965650 	 
10.499560	 36.113540 	 
10.509580	 37.220490 	 
10.519600	 38.712060 	 
10.529610	 40.429440 	 
10.539630	 42.353440 	 
10.549650	 44.573730 	 
10.559660	 47.133940 	 
10.569680	 50.121040 	 
10.579700	 53.629100 	 
10.589710	 57.625920 	 
10.599730	 62.403070 	 
10.609740	 67.444360 	 
10.619760	 73.646540 	 
10.629780	 80.545600 	 
10.639790	 88.380240 	 
10.649810	 97.371330 	 
10.659830	 107.188500 	 
10.669840	 118.104700 	 
10.679860	 129.984700 	 
10.689880	 142.763600 	 
10.699890	 155.283900 	 
10.709910	 167.465700 	 
10.719930	 178.744500 	 
10.729940	 188.546200 	 
10.739960	 196.332100 	 
10.749980	 202.381300 	 
10.759990	 205.763200 	 
10.770010	 207.827400 	 
10.780020	 207.775500 	 
10.790040	 206.325400 	 
10.800060	 203.361400 	 
10.810070	 199.685900 	 
10.820090	 195.349300 	 
10.830110	 190.657900 	 
10.840120	 186.234500 	 
10.850140	 181.501600 	 
10.860160	 178.017000 	 
10.870170	 174.778400 	 
10.880190	 172.352100 	 
10.890210	 171.074100 	 
10.900220	 170.620100 	 
10.910240	 171.585500 	 
10.920260	 172.207600 	 
10.930270	 174.696200 	 
10.940290	 177.611500 	 
10.950300	 181.716600 	 
10.960320	 186.653100 	 
10.970340	 192.613600 	 
10.980350	 199.848100 	 
10.990370	 208.247800 	 
11.000390	 218.212300 	 
11.010400	 230.145300 	 
11.020420	 244.250600 	 
11.030440	 261.554500 	 
11.040450	 282.628700 	 
11.050470	 309.498200 	 
11.060490	 343.868500 	 
11.070500	 391.637900 	 
11.080520	 458.213000 	 
11.090540	 555.314900 	 
11.100550	 702.816600 	 
11.110570	 922.692300 	 
11.120580	 1201.718000 	 
11.130600	 1422.584000 	 
11.140620	 1446.245000 	 
11.150630	 1309.032000 	 
11.160650	 1076.927000 	 
11.170670	 821.546500 	 
11.180680	 606.043800 	 
11.190700	 453.578000 	 
11.200720	 352.276700 	 
11.210730	 285.067500 	 
11.220750	 237.559600 	 
11.230770	 202.598700 	 
11.240780	 175.421000 	 
11.250800	 154.040500 	 
11.260820	 136.796900 	 
11.270830	 122.765800 	 
11.280850	 110.740500 	 
11.290860	 101.007000 	 
11.300880	 92.677470 	 
11.310900	 85.638250 	 
11.320910	 79.410060 	 
11.330930	 74.230280 	 
11.340950	 69.447120 	 
11.350960	 65.454700 	 
11.360980	 61.788260 	 
11.371000	 58.693590 	 
11.381010	 55.783540 	 
11.391030	 53.059120 	 
11.401050	 50.696030 	 
11.411060	 48.379470 	 
11.421080	 46.159250 	 
11.431100	 44.145670 	 
11.441110	 42.407320 	 
11.451130	 40.751580 	 
11.461140	 39.042870 	 
11.471160	 37.576500 	 
11.481180	 36.299760 	 
11.491190	 35.028320 	 
11.501210	 34.020520 	 
11.511230	 32.999620 	 
11.521240	 31.944940 	 
11.531260	 31.117060 	 
11.541280	 30.404950 	 
11.551290	 29.588630 	 
11.561310	 29.078960 	 
11.571330	 28.474270 	 
11.581340	 27.980170 	 
11.591360	 27.648790 	 
11.601380	 27.088600 	 
11.611390	 26.976100 	 
11.621410	 26.532890 	 
11.631430	 26.271500 	 
11.641440	 26.078690 	 
11.651460	 25.831620 	 
11.661470	 25.650750 	 
11.671490	 25.460550 	 
11.681510	 25.315600 	 
11.691520	 25.223570 	 
11.701540	 24.921670 	 
11.711560	 24.860880 	 
11.721570	 24.784760 	 
11.731590	 24.662410 	 
11.741610	 24.462970 	 
11.751620	 24.381360 	 
11.761640	 24.242090 	 
11.771660	 24.014210 	 
11.781670	 23.975060 	 
11.791690	 23.819000 	 
11.801710	 23.825020 	 
11.811720	 23.620320 	 
11.821740	 23.543650 	 
11.831750	 23.401750 	 
11.841770	 23.462300 	 
11.851790	 23.282080 	 
11.861800	 23.202860 	 
11.871820	 23.104900 	 
11.881840	 23.012240 	 
11.891850	 22.992940 	 
11.901870	 22.832820 	 
11.911890	 22.772440 	 
11.921900	 22.783610 	 
11.931920	 22.681040 	 
11.941940	 22.597730 	 
11.951950	 22.611720 	 
11.961970	 22.489060 	 
11.971990	 22.389270 	 
11.982000	 22.400400 	 
11.992020	 22.335280 	 
12.002030	 22.225550 	 
12.012050	 22.183490 	 
12.022070	 22.140920 	 
12.032080	 22.114600 	 
12.042100	 21.966970 	 
12.052120	 21.951880 	 
12.062130	 21.913310 	 
12.072150	 21.926660 	 
12.082170	 21.776130 	 
12.092180	 21.730970 	 
12.102200	 21.741670 	 
12.112220	 21.674850 	 
12.122230	 21.559270 	 
12.132250	 21.547610 	 
12.142270	 21.500090 	 
12.152280	 21.486970 	 
12.162300	 21.397690 	 
12.172310	 21.370780 	 
12.182330	 21.320060 	 
12.192350	 21.381470 	 
12.202360	 21.259130 	 
12.212380	 21.300330 	 
12.222400	 21.202200 	 
12.232410	 21.166250 	 
12.242430	 21.138390 	 
12.252450	 21.114150 	 
12.262460	 21.064150 	 
12.272480	 21.069370 	 
12.282500	 21.032170 	 
12.292510	 20.985250 	 
12.302530	 21.009860 	 
12.312550	 20.966330 	 
12.322560	 20.844050 	 
12.332580	 20.889120 	 
12.342590	 20.885540 	 
12.352610	 20.807350 	 
12.362630	 20.757550 	 
12.372640	 20.804640 	 
12.382660	 20.720810 	 
12.392680	 20.674500 	 
12.402690	 20.674730 	 
12.412710	 20.610820 	 
12.422730	 20.569790 	 
12.432740	 20.586500 	 
12.442760	 20.579410 	 
12.452780	 20.568840 	 
12.462790	 20.440290 	 
12.472810	 20.441830 	 
12.482830	 20.440860 	 
12.492840	 20.482370 	 
12.502860	 20.386590 	 
12.512870	 20.318330 	 
12.522890	 20.312700 	 
12.532910	 20.385680 	 
12.542920	 20.453850 	 
12.552940	 20.280350 	 
12.562960	 20.225220 	 
12.572970	 20.309970 	 
12.582990	 20.218710 	 
12.593010	 20.268890 	 
12.603020	 20.157060 	 
12.613040	 20.265820 	 
12.623060	 20.205420 	 
12.633070	 20.092160 	 
12.643090	 20.191690 	 
12.653110	 20.158900 	 
12.663120	 20.052510 	 
12.673140	 20.166310 	 
12.683150	 20.054550 	 
12.693170	 20.107470 	 
12.703190	 20.128940 	 
12.713200	 20.033670 	 
12.723220	 19.939060 	 
12.733240	 20.011190 	 
12.743250	 20.089160 	 
12.753270	 20.011000 	 
12.763290	 19.950270 	 
12.773300	 19.901620 	 
12.783320	 19.907950 	 
12.793340	 19.921970 	 
12.803350	 19.906650 	 
12.813370	 19.934750 	 
12.823390	 19.806770 	 
12.833400	 19.827010 	 
12.843420	 19.849810 	 
12.853430	 19.858010 	 
12.863450	 19.774700 	 
12.873470	 19.751060 	 
12.883480	 19.795940 	 
12.893500	 19.770680 	 
12.903520	 19.670210 	 
12.913530	 19.672780 	 
12.923550	 19.715870 	 
12.933570	 19.656440 	 
12.943580	 19.620410 	 
12.953600	 19.657590 	 
12.963620	 19.709250 	 
12.973630	 19.600000 	 
12.983650	 19.642760 	 
12.993670	 19.681860 	 
13.003680	 19.633630 	 
13.013700	 19.610560 	 
13.023710	 19.550740 	 
13.033730	 19.585350 	 
13.043750	 19.518690 	 
13.053760	 19.596030 	 
13.063780	 19.559000 	 
13.073800	 19.564930 	 
13.083810	 19.426910 	 
13.093830	 19.517370 	 
13.103850	 19.490970 	 
13.113860	 19.473200 	 
13.123880	 19.415960 	 
13.133900	 19.595810 	 
13.143910	 19.428870 	 
13.153930	 19.484500 	 
13.163950	 19.405140 	 
13.173960	 19.433990 	 
13.183980	 19.306700 	 
13.194000	 19.510590 	 
13.204010	 19.484560 	 
13.214030	 19.424320 	 
13.224040	 19.485210 	 
13.234060	 19.479090 	 
13.244080	 19.429890 	 
13.254090	 19.210540 	 
13.264110	 19.435770 	 
13.274130	 19.317900 	 
13.284140	 19.401290 	 
13.294160	 19.446490 	 
13.304180	 19.307230 	 
13.314190	 19.332300 	 
13.324210	 19.330800 	 
13.334230	 19.260120 	 
13.344240	 19.583830 	 
13.354260	 19.363240 	 
13.364280	 19.134840 	 
13.374290	 19.435240 	 
13.384310	 19.428420 	 
13.394320	 19.292170 	 
13.404340	 19.282880 	 
13.414360	 19.431000 	 
13.424370	 19.303130 	 
13.434390	 19.043040 	 
13.444410	 19.240300 	 
13.454420	 19.441540 	 
13.464440	 19.317880 	 
13.474460	 19.156490 	 
13.484470	 19.346480 	 
13.494490	 19.317740 	 
13.504510	 19.385750 	 
13.514520	 19.452800 	 
13.524540	 19.363640 	 
13.534560	 19.375690 	 
13.544570	 19.458800 	 
13.554590	 19.511670 	 
13.564600	 19.432870 	 
13.574620	 19.702490 	 
13.584640	 19.466710 	 
13.594650	 19.562590 	 
13.604670	 19.827110 	 
13.614690	 19.438100 	 
13.624700	 19.655960 	 
13.634720	 19.717930 	 
13.644740	 19.606970 	 
13.654750	 19.795020 	 
13.664770	 20.073880 	 
13.674790	 19.810870 	 
13.684800	 19.799230 	 
13.694820	 20.225810 	 
13.704840	 20.085800 	 
13.714850	 20.377850 	 
13.724870	 20.512570 	 
13.734880	 20.270660 	 
13.744900	 20.723080 	 
13.754920	 21.145660 	 
13.764930	 21.231060 	 
13.774950	 21.380950 	 
13.784970	 22.642860 	 
13.794980	 22.194440 	 
13.805000	 0.000000 	 
