7.725000	 0.000000 	 
7.735016	 34.563640 	 
7.745033	 31.834860 	 
7.755049	 32.124320 	 
7.765066	 32.029790 	 
7.775082	 32.450790 	 
7.785099	 31.601670 	 
7.795115	 31.511010 	 
7.805132	 31.586140 	 
7.815148	 31.228040 	 
7.825165	 31.042860 	 
7.835181	 31.203600 	 
7.845198	 31.159270 	 
7.855214	 31.425530 	 
7.865231	 31.002240 	 
7.875247	 31.235110 	 
7.885264	 30.971680 	 
7.895280	 30.911820 	 
7.905297	 30.690390 	 
7.915313	 30.911430 	 
7.925329	 30.916920 	 
7.935346	 30.508010 	 
7.945362	 30.694130 	 
7.955379	 30.651070 	 
7.965395	 30.383630 	 
7.975412	 30.484350 	 
7.985428	 30.526410 	 
7.995445	 30.549430 	 
8.005461	 30.246420 	 
8.015478	 30.302680 	 
8.025494	 30.261000 	 
8.035511	 30.329900 	 
8.045527	 30.120380 	 
8.055544	 30.356810 	 
8.065560	 30.215640 	 
8.075577	 30.094680 	 
8.085593	 30.123770 	 
8.095610	 30.105740 	 
8.105626	 29.981780 	 
8.115643	 30.108160 	 
8.125659	 29.887740 	 
8.135675	 29.892540 	 
8.145692	 29.977700 	 
8.155708	 29.823030 	 
8.165725	 29.713690 	 
8.175741	 29.842320 	 
8.185758	 29.951760 	 
8.195774	 29.536330 	 
8.205791	 29.915760 	 
8.215807	 29.937380 	 
8.225824	 29.751220 	 
8.235840	 29.755740 	 
8.245857	 29.716000 	 
8.255873	 29.609750 	 
8.265890	 29.460500 	 
8.275906	 29.526830 	 
8.285923	 29.543110 	 
8.295939	 29.457260 	 
8.305956	 29.386140 	 
8.315972	 29.317610 	 
8.325988	 29.303120 	 
8.336005	 29.221200 	 
8.346021	 29.190240 	 
8.356038	 29.199610 	 
8.366054	 29.286360 	 
8.376071	 29.286580 	 
8.386087	 29.227750 	 
8.396104	 29.165790 	 
8.406120	 29.273110 	 
8.416137	 29.156730 	 
8.426153	 29.056890 	 
8.436170	 29.028950 	 
8.446186	 29.116070 	 
8.456203	 29.108130 	 
8.466219	 29.004960 	 
8.476236	 29.078670 	 
8.486252	 28.834570 	 
8.496269	 28.894830 	 
8.506285	 28.877550 	 
8.516301	 28.851670 	 
8.526318	 28.782150 	 
8.536334	 28.758470 	 
8.546351	 28.740070 	 
8.556367	 28.687160 	 
8.566384	 28.806060 	 
8.576400	 28.639150 	 
8.586417	 28.688440 	 
8.596433	 28.711010 	 
8.606450	 28.548220 	 
8.616466	 28.597330 	 
8.626483	 28.538280 	 
8.636499	 28.638860 	 
8.646516	 28.587730 	 
8.656532	 28.496890 	 
8.666549	 28.476450 	 
8.676565	 28.445320 	 
8.686582	 28.402440 	 
8.696598	 28.458130 	 
8.706614	 28.352210 	 
8.716631	 28.367320 	 
8.726647	 28.351310 	 
8.736664	 28.397950 	 
8.746680	 28.285480 	 
8.756697	 28.248970 	 
8.766713	 28.162780 	 
8.776730	 28.200000 	 
8.786746	 28.157420 	 
8.796763	 28.192990 	 
8.806779	 28.096710 	 
8.816796	 28.059940 	 
8.826812	 28.032150 	 
8.836829	 27.978450 	 
8.846845	 27.843680 	 
8.856862	 27.965700 	 
8.866878	 28.077880 	 
8.876895	 28.034540 	 
8.886911	 27.934260 	 
8.896928	 27.959300 	 
8.906944	 27.854270 	 
8.916960	 27.840560 	 
8.926977	 27.840000 	 
8.936993	 27.846350 	 
8.947010	 27.616740 	 
8.957026	 27.732490 	 
8.967043	 27.707760 	 
8.977059	 27.705920 	 
8.987076	 27.620800 	 
8.997092	 27.661110 	 
9.007109	 27.705700 	 
9.017125	 27.703480 	 
9.027142	 27.521860 	 
9.037158	 27.535980 	 
9.047175	 27.532260 	 
9.057191	 27.556800 	 
9.067208	 27.526960 	 
9.077224	 27.438490 	 
9.087241	 27.606950 	 
9.097257	 27.490800 	 
9.107273	 27.517330 	 
9.117290	 27.413300 	 
9.127306	 27.435180 	 
9.137323	 27.286620 	 
9.147339	 27.386600 	 
9.157356	 27.219980 	 
9.167372	 27.365110 	 
9.177389	 27.380890 	 
9.187405	 27.354590 	 
9.197422	 27.259360 	 
9.207438	 27.199030 	 
9.217455	 27.201860 	 
9.227471	 27.196400 	 
9.237488	 27.212410 	 
9.247504	 27.092400 	 
9.257521	 27.065840 	 
9.267537	 27.099530 	 
9.277554	 27.149880 	 
9.287570	 27.043950 	 
9.297586	 27.051790 	 
9.307603	 26.977830 	 
9.317619	 27.037180 	 
9.327636	 26.974200 	 
9.337652	 26.998870 	 
9.347669	 26.916460 	 
9.357685	 27.002070 	 
9.367702	 26.876810 	 
9.377718	 26.844540 	 
9.387735	 26.854720 	 
9.397751	 26.943980 	 
9.407768	 26.790120 	 
9.417784	 26.847460 	 
9.427801	 26.790710 	 
9.437817	 26.856540 	 
9.447834	 26.795000 	 
9.457850	 26.729050 	 
9.467867	 26.635630 	 
9.477883	 26.731150 	 
9.487900	 26.692760 	 
9.497916	 26.720180 	 
9.507932	 26.677820 	 
9.517949	 26.738890 	 
9.527965	 26.666040 	 
9.537982	 26.599150 	 
9.547998	 26.627390 	 
9.558015	 26.610980 	 
9.568031	 26.634900 	 
9.578048	 26.607510 	 
9.588064	 26.584470 	 
9.598081	 26.514180 	 
9.608097	 26.455680 	 
9.618114	 26.586990 	 
9.628130	 26.470460 	 
9.638147	 26.503240 	 
9.648163	 26.438510 	 
9.658180	 26.492070 	 
9.668196	 26.491580 	 
9.678213	 26.361680 	 
9.688229	 26.400730 	 
9.698245	 26.438350 	 
9.708262	 26.340390 	 
9.718278	 26.291160 	 
9.728295	 26.291250 	 
9.738311	 26.262770 	 
9.748328	 26.274450 	 
9.758344	 26.219520 	 
9.768361	 26.178520 	 
9.778377	 26.263710 	 
9.788394	 26.184800 	 
9.798410	 26.231340 	 
9.808427	 26.244260 	 
9.818443	 26.107110 	 
9.828460	 26.183160 	 
9.838476	 26.140210 	 
9.848493	 26.130480 	 
9.858509	 26.174660 	 
9.868526	 26.094710 	 
9.878542	 26.102040 	 
9.888558	 26.056670 	 
9.898575	 26.045100 	 
9.908591	 26.073130 	 
9.918608	 26.183140 	 
9.928624	 26.144120 	 
9.938641	 26.084270 	 
9.948657	 25.977420 	 
9.958674	 26.064080 	 
9.968690	 26.081740 	 
9.978707	 25.988150 	 
9.988723	 26.112420 	 
9.998740	 26.045120 	 
10.008760	 26.023690 	 
10.018770	 26.049920 	 
10.028790	 26.049490 	 
10.038810	 26.064330 	 
10.048820	 26.087060 	 
10.058840	 25.982610 	 
10.068860	 26.083700 	 
10.078870	 26.126990 	 
10.088890	 26.133290 	 
10.098900	 26.113180 	 
10.108920	 26.097490 	 
10.118940	 26.212980 	 
10.128950	 26.223970 	 
10.138970	 26.220880 	 
10.148990	 26.223500 	 
10.159000	 26.288590 	 
10.169020	 26.222100 	 
10.179040	 26.355380 	 
10.189050	 26.343020 	 
10.199070	 26.452100 	 
10.209090	 26.493930 	 
10.219100	 26.531720 	 
10.229120	 26.582960 	 
10.239140	 26.648590 	 
10.249150	 26.768240 	 
10.259170	 26.731850 	 
10.269180	 26.880240 	 
10.279200	 26.986920 	 
10.289220	 27.119950 	 
10.299230	 27.248310 	 
10.309250	 27.327540 	 
10.319270	 27.507570 	 
10.329280	 27.626530 	 
10.339300	 27.861470 	 
10.349320	 28.008570 	 
10.359330	 28.283480 	 
10.369350	 28.410770 	 
10.379370	 28.639230 	 
10.389380	 28.967490 	 
10.399400	 29.240790 	 
10.409420	 29.705380 	 
10.419430	 30.032740 	 
10.429450	 30.495580 	 
10.439460	 30.814480 	 
10.449480	 31.483340 	 
10.459500	 32.059230 	 
10.469510	 32.769020 	 
10.479530	 33.625080 	 
10.489550	 34.501930 	 
10.499560	 35.504840 	 
10.509580	 36.592890 	 
10.519600	 37.993700 	 
10.529610	 39.633400 	 
10.539630	 41.299030 	 
10.549650	 43.261900 	 
10.559660	 45.517700 	 
10.569680	 47.983580 	 
10.579700	 51.134380 	 
10.589710	 54.502540 	 
10.599730	 58.453160 	 
10.609740	 62.877060 	 
10.619760	 68.119230 	 
10.629780	 73.650700 	 
10.639790	 80.295060 	 
10.649810	 87.458270 	 
10.659830	 95.701940 	 
10.669840	 104.574000 	 
10.679860	 113.829600 	 
10.689880	 123.653400 	 
10.699890	 133.413300 	 
10.709910	 142.480200 	 
10.719930	 150.148200 	 
10.729940	 157.030100 	 
10.739960	 161.513500 	 
10.749980	 164.826000 	 
10.759990	 166.552500 	 
10.770010	 167.369900 	 
10.780020	 166.821800 	 
10.790040	 165.738000 	 
10.800060	 163.706800 	 
10.810070	 161.726700 	 
10.820090	 159.460500 	 
10.830110	 157.562200 	 
10.840120	 155.230600 	 
10.850140	 153.625000 	 
10.860160	 152.511600 	 
10.870170	 151.777000 	 
10.880190	 151.633800 	 
10.890210	 152.582200 	 
10.900220	 153.826800 	 
10.910240	 156.011300 	 
10.920260	 158.816500 	 
10.930270	 161.979900 	 
10.940290	 166.079600 	 
10.950300	 170.935500 	 
10.960320	 176.539900 	 
10.970340	 183.232300 	 
10.980350	 191.015100 	 
10.990370	 200.546500 	 
11.000390	 211.930200 	 
11.010400	 225.685800 	 
11.020420	 242.054700 	 
11.030440	 262.735600 	 
11.040450	 288.444500 	 
11.050470	 320.727200 	 
11.060490	 363.334100 	 
11.070500	 421.305200 	 
11.080520	 503.297600 	 
11.090540	 623.218100 	 
11.100550	 808.494400 	 
11.110570	 1089.718000 	 
11.120580	 1467.773000 	 
11.130600	 1817.105000 	 
11.140620	 1887.721000 	 
11.150630	 1598.680000 	 
11.160650	 1141.132000 	 
11.170670	 774.829100 	 
11.180680	 542.345800 	 
11.190700	 399.225300 	 
11.200720	 306.974800 	 
11.210730	 246.490000 	 
11.220750	 204.134600 	 
11.230770	 173.067900 	 
11.240780	 149.002800 	 
11.250800	 130.799200 	 
11.260820	 116.524100 	 
11.270830	 105.203000 	 
11.280850	 96.057430 	 
11.290860	 88.549070 	 
11.300880	 82.071520 	 
11.310900	 76.888550 	 
11.320910	 71.946790 	 
11.330930	 67.936080 	 
11.340950	 64.474780 	 
11.350960	 61.352610 	 
11.360980	 58.508280 	 
11.371000	 56.019740 	 
11.381010	 53.523300 	 
11.391030	 51.249150 	 
11.401050	 49.171960 	 
11.411060	 47.027100 	 
11.421080	 45.043480 	 
11.431100	 43.253950 	 
11.441110	 41.464010 	 
11.451130	 39.969030 	 
11.461140	 38.424200 	 
11.471160	 37.045930 	 
11.481180	 35.664280 	 
11.491190	 34.552690 	 
11.501210	 33.502350 	 
11.511230	 32.551870 	 
11.521240	 31.471570 	 
11.531260	 30.638090 	 
11.541280	 29.788810 	 
11.551290	 29.184610 	 
11.561310	 28.575110 	 
11.571330	 27.993310 	 
11.581340	 27.576130 	 
11.591360	 27.161580 	 
11.601380	 26.803610 	 
11.611390	 26.481420 	 
11.621410	 26.246620 	 
11.631430	 26.006590 	 
11.641440	 25.720860 	 
11.651460	 25.569530 	 
11.661470	 25.285010 	 
11.671490	 25.250490 	 
11.681510	 25.141680 	 
11.691520	 25.010810 	 
11.701540	 24.843910 	 
11.711560	 24.698340 	 
11.721570	 24.584760 	 
11.731590	 24.354410 	 
11.741610	 24.413480 	 
11.751620	 24.261400 	 
11.761640	 24.043050 	 
11.771660	 23.941770 	 
11.781670	 23.900240 	 
11.791690	 23.760550 	 
11.801710	 23.653430 	 
11.811720	 23.632990 	 
11.821740	 23.452120 	 
11.831750	 23.391600 	 
11.841770	 23.346120 	 
11.851790	 23.173360 	 
11.861800	 23.078450 	 
11.871820	 23.053390 	 
11.881840	 22.918830 	 
11.891850	 22.887550 	 
11.901870	 22.803370 	 
11.911890	 22.752590 	 
11.921900	 22.635270 	 
11.931920	 22.472000 	 
11.941940	 22.523000 	 
11.951950	 22.458060 	 
11.961970	 22.385070 	 
11.971990	 22.379280 	 
11.982000	 22.386760 	 
11.992020	 22.404990 	 
12.002030	 22.204400 	 
12.012050	 22.136260 	 
12.022070	 22.039950 	 
12.032080	 22.014200 	 
12.042100	 21.948620 	 
12.052120	 21.923030 	 
12.062130	 21.845150 	 
12.072150	 21.789310 	 
12.082170	 21.771510 	 
12.092180	 21.686840 	 
12.102200	 21.686050 	 
12.112220	 21.681440 	 
12.122230	 21.568490 	 
12.132250	 21.498870 	 
12.142270	 21.437890 	 
12.152280	 21.443800 	 
12.162300	 21.510290 	 
12.172310	 21.360250 	 
12.182330	 21.242620 	 
12.192350	 21.243840 	 
12.202360	 21.163030 	 
12.212380	 21.154410 	 
12.222400	 21.134960 	 
12.232410	 21.181200 	 
12.242430	 21.072660 	 
12.252450	 21.108680 	 
12.262460	 21.050490 	 
12.272480	 21.010970 	 
12.282500	 21.031570 	 
12.292510	 20.959650 	 
12.302530	 20.987910 	 
12.312550	 21.018310 	 
12.322560	 20.928060 	 
12.332580	 20.897360 	 
12.342590	 20.750030 	 
12.352610	 20.822220 	 
12.362630	 20.768650 	 
12.372640	 20.761920 	 
12.382660	 20.693060 	 
12.392680	 20.725170 	 
12.402690	 20.627210 	 
12.412710	 20.635580 	 
12.422730	 20.552230 	 
12.432740	 20.654450 	 
12.442760	 20.535170 	 
12.452780	 20.603460 	 
12.462790	 20.536460 	 
12.472810	 20.482320 	 
12.482830	 20.514110 	 
12.492840	 20.457970 	 
12.502860	 20.452700 	 
12.512870	 20.445010 	 
12.522890	 20.295170 	 
12.532910	 20.385680 	 
12.542920	 20.460390 	 
12.552940	 20.320940 	 
12.562960	 20.298650 	 
12.572970	 20.290420 	 
12.582990	 20.356210 	 
12.593010	 20.182680 	 
12.603020	 20.247630 	 
12.613040	 20.280760 	 
12.623060	 20.230450 	 
12.633070	 20.137720 	 
12.643090	 20.171440 	 
12.653110	 20.208660 	 
12.663120	 20.066910 	 
12.673140	 20.209660 	 
12.683150	 20.034600 	 
12.693170	 20.040010 	 
12.703190	 20.070620 	 
12.713200	 19.995150 	 
12.723220	 20.024180 	 
12.733240	 19.997880 	 
12.743250	 20.015790 	 
12.753270	 19.926790 	 
12.763290	 19.797130 	 
12.773300	 19.911760 	 
12.783320	 19.837120 	 
12.793340	 19.935000 	 
12.803350	 19.871130 	 
12.813370	 19.853880 	 
12.823390	 19.881270 	 
12.833400	 19.727240 	 
12.843420	 19.841070 	 
12.853430	 19.903320 	 
12.863450	 19.888400 	 
12.873470	 19.884010 	 
12.883480	 19.837240 	 
12.893500	 19.804960 	 
12.903520	 19.685420 	 
12.913530	 19.711160 	 
12.923550	 19.679570 	 
12.933570	 19.739270 	 
12.943580	 19.676020 	 
12.953600	 19.696290 	 
12.963620	 19.737980 	 
12.973630	 19.684070 	 
12.983650	 19.598110 	 
12.993670	 19.702600 	 
13.003680	 19.693740 	 
13.013700	 19.635420 	 
13.023710	 19.659020 	 
13.033730	 19.633980 	 
13.043750	 19.597240 	 
13.053760	 19.432940 	 
13.063780	 19.528990 	 
13.073800	 19.647620 	 
13.083810	 19.510770 	 
13.093830	 19.590670 	 
13.103850	 19.570810 	 
13.113860	 19.544740 	 
13.123880	 19.465580 	 
13.133900	 19.638820 	 
13.143910	 19.500810 	 
13.153930	 19.446020 	 
13.163950	 19.562770 	 
13.173960	 19.532950 	 
13.183980	 19.510510 	 
13.194000	 19.486670 	 
13.204010	 19.545550 	 
13.214030	 19.486920 	 
13.224040	 19.492800 	 
13.234060	 19.412650 	 
13.244080	 19.535730 	 
13.254090	 19.439850 	 
13.264110	 19.400000 	 
13.274130	 19.454550 	 
13.284140	 19.356540 	 
13.294160	 19.318070 	 
13.304180	 19.299940 	 
13.314190	 19.342500 	 
13.324210	 19.322570 	 
13.334230	 19.378610 	 
13.344240	 19.463840 	 
13.354260	 19.223970 	 
13.364280	 19.516810 	 
13.374290	 19.504390 	 
13.384310	 19.340260 	 
13.394320	 19.284090 	 
13.404340	 19.361420 	 
13.414360	 19.456900 	 
13.424370	 19.447470 	 
13.434390	 19.511570 	 
13.444410	 19.353290 	 
13.454420	 19.394430 	 
13.464440	 19.462770 	 
13.474460	 19.399270 	 
13.484470	 19.341250 	 
13.494490	 19.443960 	 
13.504510	 19.347580 	 
13.514520	 19.496370 	 
13.524540	 19.491560 	 
13.534560	 19.411210 	 
13.544570	 19.372880 	 
13.554590	 19.564930 	 
13.564600	 19.616060 	 
13.574620	 19.431190 	 
13.584640	 19.609570 	 
13.594650	 19.460430 	 
13.604670	 19.677840 	 
13.614690	 19.551590 	 
13.624700	 19.460690 	 
13.634720	 19.483300 	 
13.644740	 19.840720 	 
13.654750	 19.894530 	 
13.664770	 19.820130 	 
13.674790	 19.867500 	 
13.684800	 20.052770 	 
13.694820	 20.032260 	 
13.704840	 20.138850 	 
13.714850	 20.115640 	 
13.724870	 20.680850 	 
13.734880	 20.706610 	 
13.744900	 21.225640 	 
13.754920	 20.991600 	 
13.764930	 20.886360 	 
13.774950	 21.545450 	 
13.784970	 22.414290 	 
13.794980	 23.611110 	 
13.805000	 0.000000 	 
